;Single acting cylinder;Single acting cylinder;Pressure at Rod end;Pressure at cap end
;PIston ;PIston ;Pressure at rod end ;Pressure at Cap end
t;x;v;p;p
[s];[mm];[m/s];[bar];[bar]
1.00;300.00000;0.00000;0.00000;0.00000
2.00;300.00000;0.00000;0.00000;0.00000
2.01;299.93392;-0.01619;0.99922;16.38653
2.02;299.59953;-0.04877;5.12629;27.38968
2.03;298.95822;-0.09073;14.92653;27.31483
2.04;297.96024;-0.09903;27.83653;20.33572
2.05;296.95715;-0.09807;37.89183;22.53449
2.06;296.00125;-0.09903;45.52477;33.12762
2.07;294.98829;-0.10522;49.58430;39.89164
2.08;293.88405;-0.11544;53.15640;37.87541
2.09;292.74102;-0.11219;56.72350;34.16012
2.10;291.65585;-0.10594;58.11487;35.34186
2.11;290.62458;-0.10145;58.93670;40.47706
2.12;289.57180;-0.10682;59.93894;42.25263
2.13;288.49099;-0.11076;61.37939;41.88145
2.14;287.38015;-0.10952;63.10356;39.63990
2.15;286.30915;-0.10579;63.68131;40.68638
2.16;285.25665;-0.10493;63.83420;42.70006
2.17;284.20491;-0.10706;63.99468;44.31560
2.18;283.11852;-0.10854;64.79207;43.24651
2.19;282.03433;-0.10827;65.43004;42.52438
2.20;280.95970;-0.10619;65.73073;42.70733
2.21;279.90046;-0.10608;65.69786;43.75492
2.22;278.83773;-0.10694;65.75099;44.39623
2.23;277.76226;-0.10814;66.06977;44.01217
2.24;276.68319;-0.10755;66.36996;43.55071
2.25;275.61149;-0.10683;66.48036;43.63317
2.26;274.54646;-0.10631;66.43177;44.16912
2.27;273.47869;-0.10697;66.46783;44.34561
2.28;272.40733;-0.10748;66.57215;44.27292
2.29;271.33182;-0.10739;66.73674;43.95992
2.30;270.26087;-0.10692;66.77196;44.01266
2.31;269.19273;-0.10675;66.74826;44.22413
2.32;268.12526;-0.10695;66.71857;44.43670
2.33;267.05334;-0.10721;66.78637;44.32176
2.34;265.98113;-0.10727;66.84895;44.21020
2.35;264.90946;-0.10701;66.88444;44.16585
2.36;263.84040;-0.10689;66.86269;44.28182
2.37;262.77133;-0.10696;66.84500;44.38042
2.38;261.70094;-0.10711;66.86152;44.37020
2.39;260.62919;-0.10717;66.89940;44.28721
2.40;259.55819;-0.10705;66.91547;44.26326
2.41;258.48804;-0.10697;66.90938;44.30033
2.42;257.41836;-0.10698;66.89822;44.34922
2.43;256.34820;-0.10707;66.89868;44.36319
2.44;255.27717;-0.10712;66.91738;44.32194
2.45;254.20630;-0.10707;66.92790;44.30043
2.46;253.13594;-0.10700;66.92582;44.31296
2.47;252.06596;-0.10700;66.91615;44.34631
2.48;250.99564;-0.10705;66.91694;44.34997
2.49;249.92507;-0.10709;66.92240;44.33981
2.50;248.85428;-0.10707;66.93119;44.31909
2.51;247.78385;-0.10703;66.93035;44.32354
2.52;246.71357;-0.10702;66.92642;44.33632
2.53;245.64334;-0.10704;66.92275;44.34856
2.54;244.57281;-0.10706;66.92626;44.34120
2.55;243.50224;-0.10706;66.92989;44.33292
2.56;242.43167;-0.10704;66.93244;44.32696
2.57;241.36133;-0.10703;66.92980;44.33453
2.58;240.29099;-0.10703;66.92757;44.34113
2.59;239.22058;-0.10705;66.92759;44.34202
2.60;238.15006;-0.10706;66.92994;44.33658
2.61;237.07955;-0.10705;66.93135;44.33326
2.62;236.00910;-0.10704;66.93119;44.33377
2.63;234.93873;-0.10704;66.92962;44.33800
2.64;233.86832;-0.10704;66.92900;44.33990
2.65;232.79786;-0.10705;66.92979;44.33832
2.66;231.72738;-0.10705;66.93082;44.33587
2.67;230.65691;-0.10704;66.93120;44.33493
2.68;229.58649;-0.10704;66.93045;44.33677
2.69;228.51608;-0.10704;66.92983;44.33844
2.70;227.44564;-0.10705;66.92990;44.33844
2.71;226.37518;-0.10704;66.93054;44.33701
2.72;225.30472;-0.10704;66.93084;44.33627
2.73;224.23428;-0.10704;66.93078;44.33639
2.74;223.16385;-0.10704;66.93026;44.33762
2.75;222.09342;-0.10704;66.93012;44.33804
2.76;221.02297;-0.10704;66.93033;44.33762
2.77;219.95251;-0.10704;66.93071;44.33676
2.78;218.88207;-0.10704;66.93071;44.33673
2.79;217.81163;-0.10704;66.93056;44.33705
2.80;216.74120;-0.10704;66.93030;44.33765
2.81;215.67076;-0.10705;66.93031;44.33758
2.82;214.60031;-0.10705;66.93051;44.33726
2.83;213.52986;-0.10704;66.93065;44.33688
2.84;212.45942;-0.10704;66.93062;44.33702
2.85;211.38898;-0.10704;66.93047;44.33727
2.86;210.31854;-0.10704;66.93041;44.33752
2.87;209.24810;-0.10704;66.93044;44.33736
2.88;208.17765;-0.10705;66.93055;44.33717
2.89;207.10720;-0.10705;66.93061;44.33704
2.90;206.03676;-0.10704;66.93054;44.33716
2.91;204.96632;-0.10704;66.93046;44.33734
2.92;203.89588;-0.10704;66.93044;44.33735
2.93;202.82544;-0.10704;66.93050;44.33729
2.94;201.75499;-0.10704;66.93056;44.33716
2.95;200.68455;-0.10704;66.93056;44.33716
2.96;199.61411;-0.10704;66.93052;44.33723
2.97;198.54367;-0.10704;66.93047;44.33730
2.98;197.47322;-0.10704;66.93048;44.33732
2.99;196.40278;-0.10704;66.93052;44.33725
3.00;195.33234;-0.10704;66.93055;44.33718
3.01;194.26189;-0.10704;66.93054;44.33719
3.02;193.19145;-0.10704;66.93051;44.33725
3.03;192.12101;-0.10704;66.93049;44.33730
3.04;191.05057;-0.10704;66.93049;44.33729
3.05;189.98012;-0.10704;66.93052;44.33724
3.06;188.90968;-0.10704;66.93054;44.33720
3.07;187.83924;-0.10704;66.93053;44.33721
3.08;186.76879;-0.10704;66.93051;44.33725
3.09;185.69835;-0.10704;66.93049;44.33729
3.10;184.62791;-0.10704;66.93050;44.33728
3.11;183.55747;-0.10704;66.93052;44.33724
3.12;182.48702;-0.10704;66.93053;44.33721
3.13;181.41658;-0.10704;66.93052;44.33722
3.14;180.34614;-0.10704;66.93051;44.33725
3.15;179.27570;-0.10704;66.93050;44.33727
3.16;178.20525;-0.10704;66.93051;44.33726
3.17;177.13481;-0.10704;66.93052;44.33724
3.18;176.06437;-0.10704;66.93053;44.33722
3.19;174.99392;-0.10704;66.93052;44.33724
3.20;173.92348;-0.10704;66.93051;44.33725
3.21;172.85304;-0.10704;66.93051;44.33726
3.22;171.78260;-0.10704;66.93051;44.33726
3.23;170.71215;-0.10704;66.93052;44.33724
3.24;169.64171;-0.10704;66.93052;44.33723
3.25;168.57127;-0.10704;66.93052;44.33723
3.26;167.50082;-0.10704;66.93052;44.33724
3.27;166.43038;-0.10704;66.93051;44.33726
3.28;165.35994;-0.10704;66.93051;44.33726
3.29;164.28950;-0.10704;66.93051;44.33725
3.30;163.21905;-0.10704;66.93052;44.33724
3.31;162.14861;-0.10704;66.93052;44.33723
3.32;161.07817;-0.10704;66.93052;44.33723
3.33;160.00772;-0.10704;66.93051;44.33725
3.34;158.93728;-0.10704;66.93051;44.33726
3.35;157.86684;-0.10704;66.93051;44.33726
3.36;156.79640;-0.10704;66.93051;44.33725
3.37;155.72595;-0.10704;66.93052;44.33724
3.38;154.65551;-0.10704;66.93052;44.33724
3.39;153.58507;-0.10704;66.93052;44.33724
3.40;152.51463;-0.10704;66.93051;44.33725
3.41;151.44418;-0.10704;66.93051;44.33725
3.42;150.37374;-0.10704;66.93051;44.33725
3.42;150.37374;-0.00000;0.00000;0.00000
3.43;150.36434;-0.00200;0.05425;2.05262
3.44;150.32282;-0.00582;0.31064;3.21867
3.45;150.25015;-0.01043;0.77093;2.92434
3.46;150.12453;-0.01291;1.37339;2.28187
3.47;149.99264;-0.01348;1.74280;0.96786
3.48;149.87533;-0.01103;1.44972;0.06166
3.49;149.76633;-0.00853;1.09368;-0.33520
3.50;149.69459;-0.00752;0.78876;0.22882
3.51;149.62785;-0.00684;0.54377;0.93713
3.52;149.55642;-0.00747;0.54130;1.65008
3.53;149.47706;-0.00909;0.73454;1.75340
3.54;149.37639;-0.01024;0.97608;1.60097
3.55;149.27205;-0.01068;1.12770;1.11734
3.56;149.16571;-0.01021;1.14039;0.70799
3.57;149.07016;-0.00923;0.98869;0.54120
3.58;148.98119;-0.00838;0.82195;0.59824
3.59;148.89967;-0.00799;0.70598;0.88888
3.60;148.81812;-0.00833;0.71719;1.13943
3.61;148.73213;-0.00884;0.77947;1.30066
3.62;148.64178;-0.00943;0.87764;1.24391
3.63;148.54551;-0.00961;0.94013;1.10793
3.64;148.44933;-0.00958;0.96519;0.92550
3.65;148.35480;-0.00924;0.92789;0.83983
3.66;148.26450;-0.00890;0.86563;0.84132
3.67;148.17654;-0.00872;0.81967;0.91636
3.68;148.08970;-0.00871;0.79737;1.02022
3.69;148.00125;-0.00891;0.82154;1.09506
3.70;147.91125;-0.00911;0.85272;1.10776
3.71;147.81932;-0.00927;0.88714;1.05921
3.72;147.72658;-0.00928;0.89710;0.99799
3.73;147.63423;-0.00918;0.89228;0.94243
3.74;147.54304;-0.00904;0.87088;0.93899
3.75;147.45337;-0.00895;0.85071;0.95668
3.76;147.36399;-0.00892;0.84096;0.99636
3.77;147.27467;-0.00897;0.84128;1.02575
3.78;147.18434;-0.00906;0.85423;1.04023
3.79;147.09356;-0.00912;0.86674;1.03076
3.80;147.00219;-0.00915;0.87526;1.00630
3.81;146.91089;-0.00912;0.87426;0.98677
3.82;146.81998;-0.00907;0.86811;0.97398
3.83;146.72945;-0.00902;0.85960;0.98114
3.84;146.63935;-0.00900;0.85500;0.99253
3.85;146.54921;-0.00902;0.85389;1.00696
3.86;146.45893;-0.00905;0.85708;1.01356
3.87;146.36829;-0.00908;0.86193;1.01237
3.88;146.27749;-0.00909;0.86584;1.00558
3.89;146.18660;-0.00909;0.86711;0.99717
3.90;146.09586;-0.00907;0.86496;0.99186
3.91;146.00526;-0.00905;0.86225;0.99108
3.92;145.91479;-0.00904;0.85943;0.99536
3.93;145.82439;-0.00904;0.85894;1.00044
3.94;145.73394;-0.00905;0.85944;1.00458
3.95;145.64340;-0.00906;0.86123;1.00471
3.96;145.55275;-0.00907;0.86282;1.00290
3.97;145.46206;-0.00907;0.86353;0.99967
3.98;145.37138;-0.00907;0.86339;0.99744
3.99;145.28079;-0.00906;0.86229;0.99639
4.00;145.19023;-0.00905;0.86132;0.99733
4.01;145.09971;-0.00905;0.86064;0.99926
4.02;145.00919;-0.00905;0.86081;1.00084
4.03;144.91864;-0.00906;0.86129;1.00177
4.04;144.82805;-0.00906;0.86199;1.00113
4.05;144.73743;-0.00906;0.86235;1.00017
4.06;144.64681;-0.00906;0.86239;0.99901
4.07;144.55621;-0.00906;0.86213;0.99857
4.08;144.46563;-0.00906;0.86173;0.99861
4.09;144.37507;-0.00905;0.86143;0.99923
4.10;144.28451;-0.00905;0.86135;0.99991
4.11;144.19395;-0.00906;0.86151;1.00029
4.12;144.10337;-0.00906;0.86174;1.00037
4.13;144.01278;-0.00906;0.86196;0.99999
4.14;143.92218;-0.00906;0.86200;0.99959
4.15;143.83159;-0.00906;0.86195;0.99927
4.16;143.74101;-0.00906;0.86180;0.99925
4.17;143.65043;-0.00906;0.86168;0.99941
4.18;143.55986;-0.00906;0.86160;0.99967
4.19;143.46929;-0.00906;0.86163;0.99985
4.20;143.37871;-0.00906;0.86172;0.99992
4.21;143.28813;-0.00906;0.86181;0.99985
4.22;143.19754;-0.00906;0.86186;0.99969
4.23;143.10696;-0.00906;0.86185;0.99956
4.24;143.01637;-0.00906;0.86180;0.99949
4.25;142.92579;-0.00906;0.86174;0.99953
4.26;142.83522;-0.00906;0.86171;0.99962
4.27;142.74464;-0.00906;0.86171;0.99972
4.28;142.65406;-0.00906;0.86173;0.99976
4.29;142.56348;-0.00906;0.86177;0.99975
4.30;142.47290;-0.00906;0.86179;0.99970
4.31;142.38231;-0.00906;0.86180;0.99964
4.32;142.29173;-0.00906;0.86178;0.99960
4.33;142.20115;-0.00906;0.86176;0.99960
4.34;142.11057;-0.00906;0.86175;0.99964
4.35;142.01999;-0.00906;0.86175;0.99967
4.36;141.92941;-0.00906;0.86175;0.99970
4.37;141.83883;-0.00906;0.86176;0.99970
4.38;141.74825;-0.00906;0.86177;0.99969
4.39;141.65767;-0.00906;0.86178;0.99966
4.40;141.56709;-0.00906;0.86178;0.99964
4.41;141.47651;-0.00906;0.86177;0.99964
4.42;141.38593;-0.00906;0.86176;0.99965
4.43;141.29535;-0.00906;0.86176;0.99966
4.44;141.20477;-0.00906;0.86176;0.99967
4.45;141.11419;-0.00906;0.86176;0.99967
4.46;141.02361;-0.00906;0.86177;0.99967
4.47;140.93303;-0.00906;0.86177;0.99967
4.48;140.84245;-0.00906;0.86177;0.99966
4.49;140.75186;-0.00906;0.86177;0.99965
4.50;140.66128;-0.00906;0.86176;0.99965
4.51;140.57070;-0.00906;0.86176;0.99966
4.52;140.48012;-0.00906;0.86176;0.99967
4.53;140.38954;-0.00906;0.86176;0.99967
4.54;140.29896;-0.00906;0.86176;0.99967
4.55;140.20838;-0.00906;0.86176;0.99967
4.56;140.11780;-0.00906;0.86177;0.99966
4.57;140.02722;-0.00906;0.86177;0.99966
4.58;139.93664;-0.00906;0.86176;0.99966
4.59;139.84606;-0.00906;0.86176;0.99966
4.60;139.75548;-0.00906;0.86176;0.99966
4.61;139.66490;-0.00906;0.86176;0.99966
4.62;139.57432;-0.00906;0.86176;0.99967
4.63;139.48374;-0.00906;0.86176;0.99966
4.64;139.39316;-0.00906;0.86176;0.99966
4.65;139.30258;-0.00906;0.86176;0.99966
4.66;139.21200;-0.00906;0.86176;0.99966
4.67;139.12142;-0.00906;0.86176;0.99966
4.68;139.03084;-0.00906;0.86176;0.99966
4.69;138.94025;-0.00906;0.86176;0.99966
4.70;138.84967;-0.00906;0.86176;0.99966
4.71;138.75909;-0.00906;0.86176;0.99966
4.72;138.66851;-0.00906;0.86176;0.99966
4.73;138.57793;-0.00906;0.86176;0.99966
4.74;138.48735;-0.00906;0.86176;0.99966
4.75;138.39677;-0.00906;0.86176;0.99966
4.76;138.30619;-0.00906;0.86176;0.99966
4.77;138.21561;-0.00906;0.86176;0.99966
4.78;138.12502;-0.00906;0.86176;0.99966
4.79;138.03444;-0.00906;0.86176;0.99966
4.80;137.94386;-0.00906;0.86176;0.99966
4.81;137.85328;-0.00906;0.86176;0.99966
4.82;137.76270;-0.00906;0.86176;0.99966
4.83;137.67212;-0.00906;0.86176;0.99966
4.84;137.58154;-0.00906;0.86176;0.99966
4.85;137.49096;-0.00906;0.86176;0.99966
4.86;137.40038;-0.00906;0.86176;0.99966
4.87;137.30980;-0.00906;0.86176;0.99966
4.88;137.21922;-0.00906;0.86176;0.99966
4.89;137.12864;-0.00906;0.86176;0.99966
4.90;137.03806;-0.00906;0.86176;0.99966
4.91;136.94748;-0.00906;0.86176;0.99966
4.92;136.85690;-0.00906;0.86176;0.99966
4.93;136.76632;-0.00906;0.86176;0.99966
4.94;136.67574;-0.00906;0.86176;0.99966
4.95;136.58516;-0.00906;0.86176;0.99966
4.96;136.49458;-0.00906;0.86176;0.99966
4.97;136.40400;-0.00906;0.86176;0.99966
4.98;136.31342;-0.00906;0.86176;0.99966
4.99;136.22284;-0.00906;0.86176;0.99966
5.00;136.13226;-0.00906;0.86176;0.99966
5.01;136.04168;-0.00906;0.86176;0.99966
5.02;135.95110;-0.00906;0.86176;0.99966
5.03;135.86052;-0.00906;0.86176;0.99966
5.04;135.76994;-0.00906;0.86176;0.99966
5.05;135.67936;-0.00906;0.86176;0.99966
5.06;135.58877;-0.00906;0.86176;0.99966
5.07;135.49819;-0.00906;0.86176;0.99966
5.08;135.40761;-0.00906;0.86176;0.99966
5.09;135.31703;-0.00906;0.86176;0.99966
5.10;135.22645;-0.00906;0.86176;0.99966
5.11;135.13587;-0.00906;0.86176;0.99966
5.12;135.04529;-0.00906;0.86176;0.99966
5.13;134.95471;-0.00906;0.86176;0.99966
5.14;134.86413;-0.00906;0.86176;0.99966
5.15;134.77355;-0.00906;0.86176;0.99966
5.16;134.68297;-0.00906;0.86176;0.99966
5.17;134.59239;-0.00906;0.86176;0.99966
5.18;134.50181;-0.00906;0.86176;0.99966
5.19;134.41123;-0.00906;0.86176;0.99966
5.20;134.32065;-0.00906;0.86176;0.99966
5.21;134.23007;-0.00906;0.86176;0.99966
5.22;134.13949;-0.00906;0.86176;0.99966
5.23;134.04891;-0.00906;0.86176;0.99966
5.24;133.95833;-0.00906;0.86176;0.99966
5.25;133.86774;-0.00906;0.86176;0.99966
5.26;133.77716;-0.00906;0.86176;0.99966
5.27;133.68658;-0.00906;0.86176;0.99966
5.28;133.59600;-0.00906;0.86176;0.99966
5.29;133.50542;-0.00906;0.86176;0.99966
5.30;133.41484;-0.00906;0.86176;0.99966
5.31;133.32426;-0.00906;0.86176;0.99966
5.32;133.23368;-0.00906;0.86176;0.99966
5.33;133.14310;-0.00906;0.86176;0.99966
5.34;133.05252;-0.00906;0.86176;0.99966
5.35;132.96194;-0.00906;0.86176;0.99966
5.36;132.87136;-0.00906;0.86176;0.99966
5.37;132.78078;-0.00906;0.86176;0.99966
5.38;132.69020;-0.00906;0.86176;0.99966
5.39;132.59962;-0.00906;0.86176;0.99966
5.40;132.50904;-0.00906;0.86176;0.99966
5.41;132.41846;-0.00906;0.86176;0.99966
5.42;132.32788;-0.00906;0.86176;0.99966
5.43;132.23730;-0.00906;0.86176;0.99966
5.44;132.14671;-0.00906;0.86176;0.99966
5.45;132.05613;-0.00906;0.86176;0.99966
5.46;131.96555;-0.00906;0.86176;0.99966
5.47;131.87497;-0.00906;0.86176;0.99966
5.48;131.78439;-0.00906;0.86176;0.99966
5.49;131.69381;-0.00906;0.86176;0.99966
5.50;131.60323;-0.00906;0.86176;0.99966
5.51;131.51265;-0.00906;0.86176;0.99966
5.52;131.42207;-0.00906;0.86176;0.99966
5.53;131.33149;-0.00906;0.86176;0.99966
5.54;131.24091;-0.00906;0.86176;0.99966
5.55;131.15033;-0.00906;0.86176;0.99966
5.56;131.05975;-0.00906;0.86176;0.99966
5.57;130.96917;-0.00906;0.86176;0.99966
5.58;130.87859;-0.00906;0.86176;0.99966
5.59;130.78801;-0.00906;0.86176;0.99966
5.60;130.69743;-0.00906;0.86176;0.99966
5.61;130.60685;-0.00906;0.86176;0.99966
5.62;130.51627;-0.00906;0.86176;0.99966
5.63;130.42569;-0.00906;0.86176;0.99966
5.64;130.33511;-0.00906;0.86176;0.99966
5.65;130.24453;-0.00906;0.86176;0.99966
5.66;130.15395;-0.00906;0.86176;0.99966
5.67;130.06337;-0.00906;0.86176;0.99966
5.68;129.97279;-0.00906;0.86176;0.99966
5.69;129.88221;-0.00906;0.86176;0.99966
5.70;129.79163;-0.00906;0.86176;0.99966
5.71;129.70105;-0.00906;0.86176;0.99966
5.72;129.61047;-0.00906;0.86176;0.99966
5.73;129.51989;-0.00906;0.86176;0.99966
5.74;129.42931;-0.00906;0.86176;0.99966
5.75;129.33873;-0.00906;0.86176;0.99966
5.76;129.24815;-0.00906;0.86176;0.99966
5.77;129.15757;-0.00906;0.86176;0.99966
5.78;129.06698;-0.00906;0.86176;0.99966
5.79;128.97640;-0.00906;0.86176;0.99966
5.80;128.88582;-0.00906;0.86176;0.99966
5.81;128.79524;-0.00906;0.86176;0.99966
5.82;128.70466;-0.00906;0.86176;0.99966
5.83;128.61408;-0.00906;0.86176;0.99966
5.84;128.52350;-0.00906;0.86176;0.99966
5.85;128.43292;-0.00906;0.86176;0.99966
5.86;128.34234;-0.00906;0.86176;0.99966
5.87;128.25176;-0.00906;0.86176;0.99966
5.88;128.16118;-0.00906;0.86176;0.99966
5.89;128.07060;-0.00906;0.86176;0.99966
5.90;127.98002;-0.00906;0.86176;0.99966
5.91;127.88944;-0.00906;0.86176;0.99966
5.92;127.79886;-0.00906;0.86176;0.99966
5.93;127.70828;-0.00906;0.86176;0.99966
5.94;127.61770;-0.00906;0.86176;0.99966
5.95;127.52712;-0.00906;0.86176;0.99966
5.96;127.43654;-0.00906;0.86176;0.99966
5.97;127.34596;-0.00906;0.86176;0.99966
5.98;127.25538;-0.00906;0.86176;0.99966
5.99;127.16479;-0.00906;0.86176;0.99966
6.00;127.07421;-0.00906;0.86176;0.99966
6.01;126.98363;-0.00906;0.86176;0.99966
6.02;126.89305;-0.00906;0.86176;0.99966
6.03;126.80247;-0.00906;0.86176;0.99966
6.04;126.71189;-0.00906;0.86176;0.99966
6.05;126.62131;-0.00906;0.86176;0.99966
6.06;126.53073;-0.00906;0.86176;0.99966
6.07;126.44015;-0.00906;0.86176;0.99966
6.08;126.34957;-0.00906;0.86176;0.99966
6.09;126.25899;-0.00906;0.86176;0.99966
6.10;126.16841;-0.00906;0.86176;0.99966
6.11;126.07783;-0.00906;0.86176;0.99966
6.12;125.98725;-0.00906;0.86176;0.99966
6.13;125.89667;-0.00906;0.86176;0.99966
6.14;125.80609;-0.00906;0.86176;0.99966
6.15;125.71551;-0.00906;0.86176;0.99966
6.16;125.62493;-0.00906;0.86176;0.99966
6.17;125.53435;-0.00906;0.86176;0.99966
6.18;125.44377;-0.00906;0.86176;0.99966
6.19;125.35319;-0.00906;0.86176;0.99966
6.20;125.26261;-0.00906;0.86176;0.99966
6.21;125.17203;-0.00906;0.86176;0.99966
6.22;125.08145;-0.00906;0.86176;0.99966
6.23;124.99087;-0.00906;0.86176;0.99966
6.24;124.90029;-0.00906;0.86176;0.99966
6.25;124.80971;-0.00906;0.86176;0.99966
6.26;124.71913;-0.00906;0.86176;0.99966
6.27;124.62855;-0.00906;0.86176;0.99966
6.28;124.53797;-0.00906;0.86176;0.99966
6.29;124.44738;-0.00906;0.86176;0.99966
6.30;124.35680;-0.00906;0.86176;0.99966
6.31;124.26622;-0.00906;0.86176;0.99966
6.32;124.17564;-0.00906;0.86176;0.99966
6.33;124.08506;-0.00906;0.86176;0.99966
6.34;123.99448;-0.00906;0.86176;0.99966
6.35;123.90390;-0.00906;0.86176;0.99966
6.36;123.81332;-0.00906;0.86176;0.99966
6.37;123.72274;-0.00906;0.86176;0.99966
6.38;123.63216;-0.00906;0.86176;0.99966
6.39;123.54158;-0.00906;0.86176;0.99966
6.40;123.45100;-0.00906;0.86176;0.99966
6.41;123.36042;-0.00906;0.86176;0.99966
6.42;123.26984;-0.00906;0.86176;0.99966
6.43;123.17926;-0.00906;0.86176;0.99966
6.44;123.08868;-0.00906;0.86176;0.99966
6.45;122.99810;-0.00906;0.86176;0.99966
6.46;122.90751;-0.00906;0.86176;0.99966
6.47;122.81693;-0.00906;0.86176;0.99966
6.48;122.72635;-0.00906;0.86176;0.99966
6.49;122.63577;-0.00906;0.86176;0.99966
6.50;122.54519;-0.00906;0.86176;0.99966
6.51;122.45461;-0.00906;0.86176;0.99966
6.52;122.36403;-0.00906;0.86176;0.99966
6.53;122.27345;-0.00906;0.86176;0.99966
6.54;122.18287;-0.00906;0.86176;0.99966
6.55;122.09229;-0.00906;0.86176;0.99966
6.56;122.00171;-0.00906;0.86176;0.99966
6.57;121.91113;-0.00906;0.86176;0.99966
6.58;121.82055;-0.00906;0.86176;0.99966
6.59;121.72997;-0.00906;0.86176;0.99966
6.60;121.63939;-0.00906;0.86176;0.99966
6.61;121.54881;-0.00906;0.86176;0.99966
6.62;121.45823;-0.00906;0.86176;0.99966
6.63;121.36765;-0.00906;0.86176;0.99966
6.64;121.27707;-0.00906;0.86176;0.99966
6.65;121.18649;-0.00906;0.86176;0.99966
6.66;121.09591;-0.00906;0.86176;0.99966
6.67;121.00533;-0.00906;0.86176;0.99966
6.68;120.91475;-0.00906;0.86176;0.99966
6.69;120.82417;-0.00906;0.86176;0.99966
6.70;120.73358;-0.00906;0.86176;0.99966
6.71;120.64300;-0.00906;0.86176;0.99966
6.72;120.55242;-0.00906;0.86176;0.99966
6.73;120.46184;-0.00906;0.86176;0.99966
6.74;120.37126;-0.00906;0.86176;0.99966
6.75;120.28068;-0.00906;0.86176;0.99966
6.76;120.19010;-0.00906;0.86176;0.99966
6.77;120.09952;-0.00906;0.86176;0.99966
6.78;120.00894;-0.00906;0.86176;0.99966
6.79;119.91836;-0.00906;0.86176;0.99966
6.80;119.82778;-0.00906;0.86176;0.99966
6.81;119.73720;-0.00906;0.86176;0.99966
6.82;119.64662;-0.00906;0.86176;0.99966
6.83;119.55604;-0.00906;0.86176;0.99966
6.84;119.46546;-0.00906;0.86176;0.99966
6.85;119.37488;-0.00906;0.86176;0.99966
